# Force coefficients
# liftDir       : (0.000000000e+00 1.000000000e+00 0.000000000e+00)
# dragDir       : (1.000000000e+00 0.000000000e+00 0.000000000e+00)
# pitchAxis     : (0.000000000e+00 0.000000000e+00 1.000000000e+00)
# magUInf       : 1.000000000e+00
# lRef          : 1.000000000e+00
# Aref          : 5.000000000e-01
# CofR          : (0.000000000e+00 0.000000000e+00 0.000000000e+00)
# Time          	Cm              	Cd              	Cl              	Cl(f)           	Cl(r)           
0.04            	-1.258175374e+00	1.592869104e+01	-8.213227512e-03	-1.262281988e+00	1.254068761e+00
0.08            	-3.148667835e-01	8.249012703e+00	6.560943994e-02	-2.820620635e-01	3.476715034e-01
0.12            	4.322029329e-01	4.960252434e+00	1.874683129e-01	5.259370893e-01	-3.384687765e-01
0.16            	1.460234607e+00	2.350193019e+00	4.394001693e-01	1.679934692e+00	-1.240534523e+00
0.2             	2.976411886e+00	-2.807564478e-01	9.095148902e-01	3.431169331e+00	-2.521654441e+00
0.24            	5.246251884e+00	-3.347567706e+00	1.588441070e+00	6.040472419e+00	-4.452031349e+00
0.28            	8.594475339e+00	-7.386497859e+00	2.721105187e+00	9.955027933e+00	-7.233922746e+00
0.32            	1.331613976e+01	-1.251857960e+01	4.501683098e+00	1.556698131e+01	-1.106529821e+01
0.36            	1.945781773e+01	-1.911132173e+01	7.331964126e+00	2.312379979e+01	-1.579183567e+01
0.4             	2.641111055e+01	-2.757127138e+01	1.112556283e+01	3.197389196e+01	-2.084832913e+01
0.44            	3.317492213e+01	-3.735210024e+01	1.513561315e+01	4.074272871e+01	-2.560711556e+01
0.48            	3.883167923e+01	-4.755809469e+01	1.746296462e+01	4.756316154e+01	-3.010019692e+01
0.52            	4.344566431e+01	-5.758597102e+01	1.768322934e+01	5.228727898e+01	-3.460404965e+01
0.56            	4.721713083e+01	-6.642674303e+01	1.630732329e+01	5.537079248e+01	-3.906346919e+01
0.6             	4.992970928e+01	-7.204846265e+01	1.435020475e+01	5.710481166e+01	-4.275460690e+01
0.64            	5.168074232e+01	-7.270952243e+01	1.276118652e+01	5.806133558e+01	-4.530014906e+01
0.68            	5.292858632e+01	-6.724644821e+01	1.112780148e+01	5.849248706e+01	-4.736468558e+01
0.72            	5.375898181e+01	-5.681753947e+01	9.670711800e+00	5.859433771e+01	-4.892362591e+01
0.76            	5.456344919e+01	-4.412332454e+01	8.139740286e+00	5.863331933e+01	-5.049357905e+01
0.8             	5.553399153e+01	-3.214392778e+01	6.937991305e+00	5.900298718e+01	-5.206499588e+01
0.84            	5.676849633e+01	-2.240807044e+01	6.161222717e+00	5.984910768e+01	-5.368788497e+01
0.88            	5.807510042e+01	-1.564389149e+01	5.663781727e+00	6.090699128e+01	-5.524320956e+01
0.92            	5.923460161e+01	-1.185480124e+01	5.466107962e+00	6.196765559e+01	-5.650154763e+01
0.96            	6.028860905e+01	-1.040682923e+01	4.992977359e+00	6.278509773e+01	-5.779212037e+01
1               	6.098859123e+01	-9.763416151e+00	3.628297173e+00	6.280273982e+01	-5.917444264e+01
1.04            	6.106269543e+01	-1.041827150e+01	1.763402628e+00	6.194439675e+01	-6.018099412e+01
1.08            	6.020804524e+01	-1.168300265e+01	-5.916865936e-01	5.991220194e+01	-6.050388853e+01
1.12            	5.826524177e+01	-1.348728703e+01	-2.669473909e+00	5.693050481e+01	-5.959997872e+01
1.16            	5.561039301e+01	-1.477565457e+01	-3.372126534e+00	5.392432975e+01	-5.729645628e+01
1.2             	5.230882578e+01	-1.512924572e+01	-2.878313998e+00	5.086966878e+01	-5.374798278e+01
1.24            	4.840882156e+01	-1.423324309e+01	-1.630491860e+00	4.759357563e+01	-4.922406749e+01
1.28            	4.394100841e+01	-1.251235599e+01	-3.466741459e-02	4.392367470e+01	-4.395834212e+01
1.32            	3.908905079e+01	-1.001695522e+01	1.534778424e+00	3.985644000e+01	-3.832166158e+01
1.36            	3.417049175e+01	-6.902893139e+00	2.954347531e+00	3.564766552e+01	-3.269331799e+01
1.4             	3.015673471e+01	-5.760702161e+00	4.693551797e+00	3.250351060e+01	-2.780995881e+01
1.44            	2.777142411e+01	-7.733066578e+00	6.611561430e+00	3.107720483e+01	-2.446564340e+01
1.48            	2.767028018e+01	-1.347181746e+01	8.805503063e+00	3.207303171e+01	-2.326752865e+01
1.52            	2.953457802e+01	-2.455721372e+01	9.921632900e+00	3.449539447e+01	-2.457376157e+01
1.56            	3.239517409e+01	-3.823913737e+01	8.388913857e+00	3.658963102e+01	-2.820071716e+01
1.6             	3.519643430e+01	-5.025437220e+01	4.884497891e+00	3.763868324e+01	-3.275418535e+01
1.64            	3.723225533e+01	-5.815641353e+01	2.059128474e+00	3.826181957e+01	-3.620269109e+01
1.68            	3.837621904e+01	-6.026500200e+01	-6.690594120e-02	3.834276607e+01	-3.840967201e+01
1.72            	3.929361360e+01	-5.945405546e+01	-1.327717581e+00	3.862975481e+01	-3.995747239e+01
1.76            	4.032778238e+01	-5.765232318e+01	-1.953429060e+00	3.935106785e+01	-4.130449691e+01
1.8             	4.163938583e+01	-5.617280964e+01	-2.165233440e+00	4.055676911e+01	-4.272200255e+01
1.84            	4.328680405e+01	-5.519818960e+01	-2.061148976e+00	4.225622956e+01	-4.431737854e+01
1.88            	4.531315541e+01	-5.478180364e+01	-1.804685738e+00	4.441081254e+01	-4.621549828e+01
1.92            	4.766347577e+01	-5.503369576e+01	-1.714550680e+00	4.680620043e+01	-4.852075111e+01
1.96            	5.030641743e+01	-5.571375513e+01	-1.954880373e+00	4.932897724e+01	-5.128385762e+01
2               	5.315398234e+01	-5.660115927e+01	-2.584045479e+00	5.186195960e+01	-5.444600508e+01
2.04            	5.617795824e+01	-5.789075974e+01	-3.576837218e+00	5.438953963e+01	-5.796637685e+01
2.08            	5.924193670e+01	-5.948064807e+01	-4.788229505e+00	5.684782195e+01	-6.163605146e+01
2.12            	6.239278320e+01	-6.051109331e+01	-5.601528188e+00	5.959201911e+01	-6.519354730e+01
2.16            	6.573275970e+01	-6.188232588e+01	-5.873914568e+00	6.279580242e+01	-6.866971698e+01
2.2             	6.924203085e+01	-6.299722927e+01	-5.375917075e+00	6.655407231e+01	-7.192998939e+01
2.24            	7.307874706e+01	-6.398645719e+01	-4.103577068e+00	7.102695853e+01	-7.513053559e+01
2.28            	7.721184748e+01	-6.532150851e+01	-2.027695384e+00	7.619799979e+01	-7.822569517e+01
2.32            	8.166387806e+01	-6.628416816e+01	1.408851621e+00	8.236830387e+01	-8.095945225e+01
2.36            	8.632574790e+01	-6.899294171e+01	4.043231441e+00	8.834736362e+01	-8.430413218e+01
2.4             	9.073859349e+01	-7.065257986e+01	6.664038295e+00	9.407061264e+01	-8.740657434e+01
2.44            	9.449300304e+01	-7.157056251e+01	9.293634890e+00	9.913982048e+01	-8.984618559e+01
2.48            	9.739526434e+01	-7.097131614e+01	1.193646041e+01	1.033634945e+02	-9.142703413e+01
2.52            	9.967413823e+01	-6.888916916e+01	1.396650237e+01	1.066573894e+02	-9.269088705e+01
2.56            	1.016518042e+02	-6.596361705e+01	1.507227115e+01	1.091879398e+02	-9.411566864e+01
2.6             	1.034554242e+02	-6.289345252e+01	1.527919723e+01	1.110950228e+02	-9.581582557e+01
2.64            	1.053830446e+02	-6.028630753e+01	1.542571571e+01	1.130959025e+02	-9.767018677e+01
2.68            	1.072377061e+02	-5.846403702e+01	1.548263944e+01	1.149790259e+02	-9.949638643e+01
2.72            	1.086885222e+02	-5.701431640e+01	1.546246189e+01	1.164197532e+02	-1.009572913e+02
2.76            	1.096732748e+02	-5.592444266e+01	1.566783702e+01	1.175071933e+02	-1.018393563e+02
2.8             	1.102141650e+02	-5.537037963e+01	1.617717625e+01	1.183027531e+02	-1.021255769e+02
2.84            	1.103510960e+02	-5.486941846e+01	1.678550208e+01	1.187438471e+02	-1.019583450e+02
2.88            	1.101986067e+02	-5.462682515e+01	1.752466758e+01	1.189609405e+02	-1.014362729e+02
2.92            	1.098361343e+02	-5.458770481e+01	1.830058047e+01	1.189864245e+02	-1.006858441e+02
2.96            	1.093477102e+02	-5.475718099e+01	1.905063389e+01	1.188730271e+02	-9.982239324e+01
3               	1.088656777e+02	-5.496654068e+01	1.950496213e+01	1.186181588e+02	-9.911319667e+01
3.04            	1.084324096e+02	-5.518445377e+01	1.971130256e+01	1.182880609e+02	-9.857675834e+01
3.08            	1.080866635e+02	-5.542568650e+01	1.967442455e+01	1.179238758e+02	-9.824945122e+01
3.12            	1.078286754e+02	-5.570111881e+01	1.945941885e+01	1.175583848e+02	-9.809896599e+01
3.16            	1.076280674e+02	-5.602540642e+01	1.913341059e+01	1.171947727e+02	-9.806136209e+01
3.2             	1.074204594e+02	-5.643485600e+01	1.875669531e+01	1.167988070e+02	-9.804211173e+01
3.24            	1.071938513e+02	-5.691620258e+01	1.831267649e+01	1.163501896e+02	-9.803751306e+01
3.28            	1.069107101e+02	-5.721375326e+01	1.796833414e+01	1.158948772e+02	-9.792654305e+01
3.32            	1.065318069e+02	-5.798637215e+01	1.775145747e+01	1.154075356e+02	-9.765607813e+01
3.36            	1.060609701e+02	-5.891999072e+01	1.761000358e+01	1.148659719e+02	-9.725596832e+01
3.4             	1.055570582e+02	-5.995429399e+01	1.753959342e+01	1.143268549e+02	-9.678726148e+01
3.44            	1.050512678e+02	-6.110368539e+01	1.752360804e+01	1.138130718e+02	-9.628946378e+01
3.48            	1.045800065e+02	-6.216558585e+01	1.737304282e+01	1.132665279e+02	-9.589348506e+01
3.52            	1.041675087e+02	-6.309921811e+01	1.731713273e+01	1.128260751e+02	-9.550894237e+01
3.56            	1.038096942e+02	-6.415284607e+01	1.725588836e+01	1.124376383e+02	-9.518174998e+01
3.6             	1.035230833e+02	-6.484327401e+01	1.728698851e+01	1.121665776e+02	-9.487958909e+01
3.64            	1.032828268e+02	-6.589451777e+01	1.713587668e+01	1.118507651e+02	-9.471488845e+01
3.68            	1.031038730e+02	-6.684871673e+01	1.701498167e+01	1.116113639e+02	-9.459638219e+01
3.72            	1.029838502e+02	-6.776448649e+01	1.689613979e+01	1.114319201e+02	-9.453578033e+01
3.76            	1.029017732e+02	-6.863906178e+01	1.677511637e+01	1.112893314e+02	-9.451421503e+01
3.8             	1.028432378e+02	-6.947058480e+01	1.667312897e+01	1.111798023e+02	-9.450667328e+01
3.84            	1.028023917e+02	-7.026394526e+01	1.659827542e+01	1.111015294e+02	-9.450325401e+01
3.88            	1.027825377e+02	-7.103145523e+01	1.656020076e+01	1.110626381e+02	-9.450243731e+01
3.92            	1.027806843e+02	-7.176167341e+01	1.655304310e+01	1.110572059e+02	-9.450416278e+01
3.96            	1.027951098e+02	-7.241263908e+01	1.657567277e+01	1.110829462e+02	-9.450727346e+01
4               	1.028462818e+02	-7.303161581e+01	1.661766960e+01	1.111551166e+02	-9.453744698e+01
4.04            	1.029082787e+02	-7.359836511e+01	1.663803401e+01	1.112272957e+02	-9.458926170e+01
4.08            	1.029911875e+02	-7.399806525e+01	1.663156704e+01	1.113069711e+02	-9.467540402e+01
4.12            	1.030836377e+02	-7.438874749e+01	1.660959568e+01	1.113884356e+02	-9.477883990e+01
4.16            	1.031892539e+02	-7.470380153e+01	1.658284844e+01	1.114806781e+02	-9.489782970e+01
4.2             	1.033040270e+02	-7.496220522e+01	1.654064526e+01	1.115743496e+02	-9.503370433e+01
4.24            	1.034278475e+02	-7.518132105e+01	1.648063253e+01	1.116681638e+02	-9.518753124e+01
4.28            	1.035498218e+02	-7.538018764e+01	1.641692102e+01	1.117582823e+02	-9.534136130e+01
4.32            	1.036642883e+02	-7.556350207e+01	1.633084692e+01	1.118297118e+02	-9.549886487e+01
4.36            	1.037762989e+02	-7.572101264e+01	1.621978597e+01	1.118861919e+02	-9.566640594e+01
4.4             	1.038832836e+02	-7.587660381e+01	1.611353029e+01	1.119400488e+02	-9.582651847e+01
4.44            	1.039877646e+02	-7.604455638e+01	1.599934227e+01	1.119874358e+02	-9.598809348e+01
4.48            	1.040856712e+02	-7.621743621e+01	1.587348442e+01	1.120224134e+02	-9.614892903e+01
4.52            	1.041853891e+02	-7.639520194e+01	1.573462835e+01	1.120527032e+02	-9.631807490e+01
4.56            	1.042897086e+02	-7.656134365e+01	1.558561907e+01	1.120825181e+02	-9.649689907e+01
4.6             	1.043999520e+02	-7.673075119e+01	1.542593433e+01	1.121129192e+02	-9.668698487e+01
4.64            	1.045269552e+02	-7.693618699e+01	1.526088577e+01	1.121573981e+02	-9.689651232e+01
4.68            	1.046460844e+02	-7.709027549e+01	1.508529865e+01	1.121887337e+02	-9.710343505e+01
4.72            	1.047668684e+02	-7.722573995e+01	1.485640687e+01	1.121950719e+02	-9.733866499e+01
4.76            	1.048899446e+02	-7.735510071e+01	1.461349203e+01	1.121966907e+02	-9.758319862e+01
4.8             	1.050559551e+02	-7.759166854e+01	1.444182826e+01	1.122768693e+02	-9.783504100e+01
4.84            	1.051342151e+02	-7.767399082e+01	1.408900982e+01	1.121787200e+02	-9.808971020e+01
4.88            	1.052520056e+02	-7.779946169e+01	1.383682812e+01	1.121704196e+02	-9.833359153e+01
4.92            	1.053738586e+02	-7.791887622e+01	1.355887841e+01	1.121532978e+02	-9.859441935e+01
4.96            	1.055279913e+02	-7.809587508e+01	1.334075282e+01	1.121983677e+02	-9.885761490e+01
5               	1.056610259e+02	-7.820313448e+01	1.303632800e+01	1.121791899e+02	-9.914286188e+01
5.04            	1.058094130e+02	-7.834996308e+01	1.270256327e+01	1.121606946e+02	-9.945813137e+01
5.08            	1.059678478e+02	-7.844324439e+01	1.237135788e+01	1.121535267e+02	-9.978216883e+01
5.12            	1.061351117e+02	-7.850408358e+01	1.201772819e+01	1.121439758e+02	-1.001262476e+02
5.16            	1.063114177e+02	-7.852878729e+01	1.163583627e+01	1.121293358e+02	-1.004934995e+02
5.2             	1.065009516e+02	-7.857822624e+01	1.128213478e+01	1.121420190e+02	-1.008598843e+02
5.24            	1.066930006e+02	-7.850624799e+01	1.092227704e+01	1.121541391e+02	-1.012318620e+02
5.28            	1.068819589e+02	-7.843923575e+01	1.056494840e+01	1.121644331e+02	-1.015994847e+02
5.32            	1.070785720e+02	-7.833238575e+01	1.020033451e+01	1.121787393e+02	-1.019784048e+02
5.36            	1.072768551e+02	-7.821716409e+01	9.854182899e+00	1.122039466e+02	-1.023497637e+02
5.4             	1.074596250e+02	-7.808916127e+01	9.497252660e+00	1.122082514e+02	-1.027109987e+02
5.44            	1.076584244e+02	-7.791576654e+01	9.161583340e+00	1.122392161e+02	-1.030776328e+02
5.48            	1.078388319e+02	-7.763490431e+01	8.732521951e+00	1.122050928e+02	-1.034725709e+02
5.52            	1.080523009e+02	-7.751247392e+01	8.502809093e+00	1.123037054e+02	-1.038008963e+02
5.56            	1.082543937e+02	-7.732159258e+01	8.235361177e+00	1.123720743e+02	-1.041367131e+02
5.6             	1.084663145e+02	-7.712733614e+01	7.951054091e+00	1.124418416e+02	-1.044907875e+02
5.64            	1.086722134e+02	-7.685170976e+01	7.660139839e+00	1.125022833e+02	-1.048421435e+02
5.68            	1.088830020e+02	-7.661769988e+01	7.378682235e+00	1.125723431e+02	-1.051936609e+02
5.72            	1.091209780e+02	-7.637330632e+01	7.103640634e+00	1.126727984e+02	-1.055691577e+02
5.76            	1.093283996e+02	-7.586409841e+01	6.808303108e+00	1.127325511e+02	-1.059242480e+02
5.8             	1.095740357e+02	-7.554070450e+01	6.511530980e+00	1.128298012e+02	-1.063182702e+02
5.84            	1.098170716e+02	-7.519164386e+01	6.210035693e+00	1.129220894e+02	-1.067120537e+02
5.88            	1.100987400e+02	-7.519456222e+01	5.963188093e+00	1.130803341e+02	-1.071171460e+02
5.92            	1.103654019e+02	-7.506319054e+01	5.725457942e+00	1.132281309e+02	-1.075026730e+02
5.96            	1.106505480e+02	-7.481414025e+01	5.439838652e+00	1.133704673e+02	-1.079306286e+02
6               	1.109696694e+02	-7.469627964e+01	4.981708391e+00	1.134605236e+02	-1.084788152e+02
6.04            	1.113053109e+02	-7.443168228e+01	4.607894117e+00	1.136092580e+02	-1.090013639e+02
6.08            	1.116241293e+02	-7.425232546e+01	4.111153898e+00	1.136797062e+02	-1.095685523e+02
6.12            	1.119809754e+02	-7.411165394e+01	3.603092132e+00	1.137825215e+02	-1.101794294e+02
6.16            	1.123827962e+02	-7.358508562e+01	3.195828759e+00	1.139807105e+02	-1.107848818e+02
6.2             	1.128301773e+02	-7.391765288e+01	2.319996097e+00	1.139901753e+02	-1.116701792e+02
6.24            	1.133413665e+02	-7.374638072e+01	1.676715499e+00	1.141797243e+02	-1.125030088e+02
6.28            	1.138390348e+02	-7.400914320e+01	6.994245075e-01	1.141887471e+02	-1.134893225e+02
6.32            	1.144199839e+02	-7.437523495e+01	-3.273291336e-01	1.142563194e+02	-1.145836485e+02
6.36            	1.150067842e+02	-7.510181427e+01	-1.439350882e+00	1.142871088e+02	-1.157264597e+02
6.4             	1.156497795e+02	-7.603813155e+01	-2.591252385e+00	1.143541533e+02	-1.169454057e+02
6.44            	1.162596403e+02	-7.780672490e+01	-3.826373383e+00	1.143464536e+02	-1.181728270e+02
6.48            	1.168248772e+02	-7.968437127e+01	-4.535075371e+00	1.145573395e+02	-1.190924149e+02
6.52            	1.173383701e+02	-8.156681955e+01	-4.672864068e+00	1.150019381e+02	-1.196748021e+02
6.56            	1.176085880e+02	-8.307919983e+01	-3.907306407e+00	1.156549348e+02	-1.195622412e+02
6.6             	1.175302303e+02	-8.329644928e+01	-2.310471009e+00	1.163749948e+02	-1.186854658e+02
6.64            	1.172550421e+02	-8.190788959e+01	-3.175584725e-01	1.170962628e+02	-1.174138213e+02
6.68            	1.172093053e+02	-7.858415724e+01	1.802719428e+00	1.181106650e+02	-1.163079456e+02
6.72            	1.176683981e+02	-7.552507529e+01	3.035131874e+00	1.191859640e+02	-1.161508321e+02
6.76            	1.187241875e+02	-7.220976032e+01	3.863801948e+00	1.206560884e+02	-1.167922865e+02
6.8             	1.202702779e+02	-6.936378393e+01	4.170445636e+00	1.223555007e+02	-1.181850550e+02
6.84            	1.220572644e+02	-6.750291935e+01	4.032957493e+00	1.240737432e+02	-1.200407857e+02
6.88            	1.238114719e+02	-6.642295684e+01	3.625281627e+00	1.256241127e+02	-1.219988311e+02
6.92            	1.254444987e+02	-6.624574715e+01	3.276724206e+00	1.270828608e+02	-1.238061366e+02
6.96            	1.269529515e+02	-6.629797910e+01	2.894661005e+00	1.284002820e+02	-1.255056210e+02
7               	1.283084376e+02	-6.623816552e+01	2.421948102e+00	1.295194116e+02	-1.270974635e+02
7.04            	1.295141629e+02	-6.584684456e+01	1.840384006e+00	1.304343549e+02	-1.285939709e+02
7.08            	1.305842923e+02	-6.482967526e+01	1.182151904e+00	1.311753683e+02	-1.299932164e+02
7.12            	1.316003782e+02	-6.332235656e+01	5.563861422e-01	1.318785713e+02	-1.313221851e+02
7.16            	1.326802235e+02	-6.142464958e+01	9.446386076e-02	1.327274554e+02	-1.326329915e+02
7.2             	1.339681206e+02	-5.920678234e+01	-3.940780054e-01	1.337710816e+02	-1.341651597e+02
7.24            	1.355643156e+02	-5.686553439e+01	-9.468728277e-01	1.350908792e+02	-1.360377520e+02
7.28            	1.372150095e+02	-5.316692057e+01	-1.327041111e+00	1.365514889e+02	-1.378785300e+02
7.32            	1.389830668e+02	-4.883740226e+01	-1.786767406e+00	1.380896831e+02	-1.398764505e+02
7.36            	1.410406966e+02	-4.442281206e+01	-2.254016062e+00	1.399136886e+02	-1.421677046e+02
7.4             	1.434097247e+02	-4.049321565e+01	-2.842528913e+00	1.419884602e+02	-1.448309891e+02
7.44            	1.458295021e+02	-3.633296028e+01	-3.536510097e+00	1.440612470e+02	-1.475977571e+02
7.48            	1.479368878e+02	-3.172248436e+01	-4.457390204e+00	1.457081927e+02	-1.501655829e+02
7.52            	1.497346396e+02	-2.541717707e+01	-5.346400530e+00	1.470614393e+02	-1.524078398e+02
7.56            	1.510737985e+02	-2.035336134e+01	-6.173535130e+00	1.479870309e+02	-1.541605661e+02
7.6             	1.521768689e+02	-1.676807942e+01	-7.243407331e+00	1.485551653e+02	-1.557985726e+02
7.64            	1.530990041e+02	-1.450032921e+01	-7.835131744e+00	1.491814382e+02	-1.570165700e+02
7.68            	1.539269267e+02	-1.314203935e+01	-8.124036368e+00	1.498649085e+02	-1.579889449e+02
7.72            	1.546574640e+02	-1.236110319e+01	-8.564495064e+00	1.503752165e+02	-1.589397116e+02
7.76            	1.551978676e+02	-1.216105582e+01	-8.937440744e+00	1.507291472e+02	-1.596665880e+02
7.8             	1.556557632e+02	-1.226392243e+01	-9.127105507e+00	1.510922104e+02	-1.602193159e+02
7.84            	1.560635749e+02	-1.245125101e+01	-9.498675406e+00	1.513142372e+02	-1.608129126e+02
